0,1,2,3,4,5,6,7,8,9,10,11,12,13,14,15,16,17,18,19,20,21,22,23,24,25,26,27,28,29,30,31,32,33,34,35,36,37,38,39,40,41,42,43,44,45,46,47,48,49,50,51,52,53,54,55,56,57,58,59,60,61,62,63,64,65,66,67,68,69,70,71,72,73,74,75,76,77,78,79,80,81,82,83,84,85,86,87,88,89,90,91,92,93,94,95,96,97,98,99,100,101,102,103,104,105,106,107,108,109,110,111,112,113,114,115,116,117,118,119,120,121,122,123,124,125,126,127,128,129,130,131,132,133,134,135,136,137,138,139,140,141,142,143,144,145,146,147,148,149,150,151,152,153,154,155,156,157,158,159,160,161,162,163,164,165,166,167,168,169,170,171,172,173,174,175,176,177,178,179,180,181,182,183,184,185,186,187,188,189,190,191,192,193,194,195,196,197,198,199
0.3601369757214149,0.7704825834964684,0.8287594752438333,0.6985347029664628,0.6335327039841409,0.5721482325749285,0.5465624014698598,0.5721768630143835,0.4687888550711958,0.4206764027281606,0.5906610240773288,0.6740276754862775,0.231047627189224,0.1574714816104044,0.2335366026656062,0.2373975666450368,0.3285197174164933,0.6054445562436249,0.8475416100878317,0.8184244701905796,0.7620333856098768,0.7059627191094868,0.4914842386317837,0.5461332613609486,0.6348100650537601,0.426241186642793,0.4482766141808632,0.5893040208056314,0.3443279497322396,0.2031848935523582,0.0168765685564225,0.1451993863855845,0.2716054338451374,0.4120845728588894,0.791274285537676,0.921550128059644,1.0,0.7382666711332654,0.703637660953863,0.5050611110009434,0.4528812859806448,0.4250530639393675,0.3259733105033968,0.629253206874612,0.6342283698230557,0.2685530084888073,0.2689798663051329,0.274234375253265,0.1708350430491624,0.4517534457986951,0.5308629439487111,0.6805541700715121,0.939005421629562,0.7107785305356562,0.6129344789306941,0.4575730305461015,0.3431599365109774,0.4539934732983658,0.4474303531100637,0.601914005845008,0.402881372976042,0.3833736660582473,0.3571850324777714,0.3606538729103669,0.2113516731520388,0.1922328281335461,0.280861240168049,0.5648737260675397,0.7767267712911621,0.6085767699640181,0.6456409629194706,0.5542568730108444,0.4712322310584763,0.4302233850850588,0.400254227764528,0.5694665361522744,0.5801900051726068,0.5085487086271608,0.4969489635010225,0.3480904193685734,0.0578105687843076,0.1869108700599495,0.3887494027627777,0.5998274306290335,0.7318543300939091,0.7923610612775387,0.8504325324245559,0.7825630795034286,0.577216947242681,0.4821906964242435,0.4120643808313535,0.3574389048122042,0.5308805713638681,0.5058908473084578,0.4463758713646618,0.5140456512574377,0.3339553391860851,0.0201746160357785,0.1227313482192541,0.3453202321466039,0.5257511682655369,0.7864228304549844,0.7123900060736056,0.8680021985560428,0.6473527730787905,0.4850034529149918,0.4390253256445116,0.4085059509407128,0.3209055770320788,0.5651161690480798,0.5251911172682371,0.3749784488494003,0.425392944186287,0.2685860249974792,0.4063957246713929,0.3519536577490667,0.4004120123021665,0.5786845503548756,0.7539508766717098,0.7596945226303915,0.7440306283718562,0.4515603909472233,0.5363954907976816,0.4420314607004698,0.5176256171939877,0.4295775275813129,0.593088708225115,0.6476571339939666,0.3301332155145949,0.187674461799816,0.2483389110486336,0.1143987888019277,0.3196893394823034,0.6804840303860011,0.6482868483601248,0.9662401930269704,0.7661426082147598,0.5762427367780428,0.5963832030510775,0.4589247382474224,0.4410449259135801,0.4237482634984972,0.5659756530759008,0.3720510054909243,0.5075609997194307,0.472517150770342,0.06112673111234,0.1386456643925632,0.1658226281766164,0.2788685325354948,0.434787199136632,0.6713308701673402,0.8044262086367617,0.8643770055933622,0.4815618653743843,0.5223215362524924,0.4555900295034011,0.6116133207509057,0.5754993073052905,0.626843608963295,0.6075572485858517,0.3517727944967109,0.2430267788532942,0.2958193601162613,0.0,0.2431506501986189,0.3787034528516035,0.7192010322290726,0.7749251871654727,0.869380403389477,0.6976827706680306,0.4233453525230964,0.3221577064305496,0.4346327464346613,0.4098104268743872,0.4977096645413881,0.6554669048398727,0.5790479368743484,0.5477377842588543,0.2165656906223538,0.1176081475513374,0.2618949879255643,0.3270591908480111,0.5361737233896999,0.7383223532149079,0.980551164089854,0.844432833131413,0.7263128622597252,0.6653956932583572,0.5239133942195309,0.3424087439533581,0.5910750176318478,0.6579181970852781,0.6152416962919892,0.4452529324640683,0.3743687495401674,0.2047312424186492,0.0900330608171551,0.2071057306746874,0.5251405189342392
0.4224272674256764,0.5970127810393858,0.7304546846757609,0.7572406288336849,0.8584295910848067,0.9216672967616976,0.916386378326739,0.8923739131276434,0.7777143582507605,0.6874568699016665,0.5329724048672599,0.4226486587229723,0.3175219047556743,0.2574216728427125,0.0954219310729624,0.0826811014204167,0.1115244336342225,0.0483038241356388,0.2688781592746843,0.3347071626924841,0.3309262603331903,0.5507821991530143,0.6372954402691178,0.7569204856236227,0.8768766818386398,0.9620359657908062,0.9137597288229686,0.892257283610698,0.8685073298269476,0.7858933360376673,0.6028768740167811,0.5928650053967935,0.3612046104338515,0.3115044900452712,0.1913370453693738,0.1300514071197553,0.0451898132834168,0.0050802874098233,0.1244462305591164,0.2047430440038286,0.271220889568756,0.4765872103366109,0.5649928351086395,0.6566242098922992,0.8239402056596945,0.9052056005019102,0.893695072802476,0.9852921706907948,0.9971763372887302,0.7852568842117511,0.7263858870759212,0.6297285283644442,0.5842170219234192,0.326099132684594,0.2023913809336927,0.1108537797642128,0.1451146311176179,0.0397124851327052,0.0507747175342438,0.1523972715030221,0.2433920448440569,0.3887436834520344,0.473388664596533,0.6100711175211377,0.7158276787323256,0.765234982668991,0.8850648111514764,0.932886445879635,0.90853979810729,0.8189485361234283,0.7613218854555794,0.704415452452748,0.6236108759896843,0.5257998053200744,0.3194779106532094,0.1866211544107537,0.1175447302385127,0.0380174339434502,0.1049214300490223,0.1901437943236434,0.1316253369705858,0.2047486304063248,0.4167638974920333,0.5158167386234837,0.6453302051624388,0.816521083882921,0.7836121470847011,0.8461147296954967,0.9262770670917628,0.9236903342489,0.855199804228487,0.8928545083212481,0.6633459710308328,0.5272312231608965,0.4262043104876779,0.3399757552739743,0.1624927884277424,0.1113001240136808,0.1196109461884145,0.1195434624743617,0.119875278758163,0.2870413630780313,0.3693272320704065,0.3441145621250788,0.4616713315043551,0.6960378483362036,0.8330478868692845,0.8520325531000753,0.89498307509847,0.8984532754035774,0.861353792586603,0.901510270861369,0.7447246857588756,0.659406532065471,0.4395714850103513,0.4322735190526874,0.2952272498448386,0.1137550777228575,0.1150525597063207,0.0723416417921906,0.0600881507846985,0.0,0.1769712853438299,0.3256568519307624,0.4132522199466432,0.5576437885941615,0.7562074864738298,0.7953249829344637,0.788235420157176,0.9166491860861664,0.936317507396238,0.8646508786576709,0.8640647427476597,0.671169008286302,0.6092251688379661,0.4220898854980292,0.3450191765728459,0.2735522353931957,0.1447447958004122,0.0828606717278738,0.0714813540013771,0.0908485785456131,0.1723838347179537,0.2603040738864661,0.403888518423411,0.4766575762101619,0.5275976016890777,0.7574268202483048,0.8798605894358627,1.0,0.992868529677633,0.906532656655812,0.8945976059132474,0.798651693865541,0.6885593081170379,0.5784263300602976,0.508674145173863,0.2587845960794842,0.1742836893624162,0.1862995236684267,0.145990076041839,0.0424185308119555,0.1691173297608021,0.20368028816961,0.244666097677312,0.2681229678094532,0.4300432531383199,0.6024403370365272,0.780751504756623,0.8755839042355833,0.8861914282050042,0.9232729387228604,0.9195492957077258,0.861082400353951,0.7936474080918935,0.6754471799434334,0.4787098560477824,0.4118701182990512,0.2970695176789246,0.2365693571731852,0.0817459970790218,0.085260410946651,0.0982966049559451,0.1040696789743486,0.1068112748097398,0.3274101083052348,0.4371086162650477,0.5446232796869636,0.663414612240947,0.6971455054561994,0.895194931076521,0.9808656154985456,0.8857796567464511,0.9698855920836632,0.9012992993763088,0.7118200255295837,0.6293503544989696,0.4581580571661695,0.3861746530877349,0.2892042761885926
0.4623771887828157,0.8558189994263564,0.7970374396499955,0.8038629997109914,0.5099755560715266,0.5547005481292001,0.5450032530160293,0.3475198004526745,0.4211495428165577,0.6250635769010197,0.4408489107021692,0.6116703478311147,0.3433056983910275,0.2239722193722343,0.0901605063042384,0.2711608953489709,0.6116918590950153,0.6612143440473424,0.6803555207788704,0.9301300503419924,0.7515989013934941,0.7796879171589546,0.5965346152229686,0.1829177067196856,0.3649699306531532,0.6015516192981932,0.5836734892298492,0.4684369450987005,0.4142968577865804,0.1628290264326834,0.212780947786612,0.395327893884137,0.3600736601138364,0.6664579748754607,0.7460411949523145,0.8931760172414399,1.0,0.7701159277526097,0.5823487169258584,0.5778332933036096,0.574040797149048,0.4330569322669036,0.4768394514445916,0.588608696360592,0.6093712254302834,0.4914887500608131,0.1537675142181978,0.3700626168025251,0.1603497583942592,0.3283813704553707,0.4686086342628688,0.9753967851671568,0.845119018979618,0.720831509552994,0.7614697206326422,0.6165455918850814,0.4405594758570359,0.5246636794335799,0.4278025679965524,0.5182001308894404,0.3876060017448302,0.3752566738323706,0.5267331079028973,0.3868133299365992,0.197125429355215,0.4104678780532795,0.4135782435223416,0.6073805660278415,0.7867286730466088,0.8154603889477481,0.7399955971601715,0.7305670904972004,0.5161755727270174,0.5086088770572273,0.5585168618321998,0.564638823245417,0.4867142678469349,0.4268688064489392,0.4596608899985859,0.2926819148283077,0.2148138635548949,0.202978680452221,0.5518959278245724,0.3889646720891852,0.5203824199276501,0.8442159772836262,0.7776232809882235,0.7389986310873755,0.6251940347936786,0.5854929364221365,0.3077643716810989,0.4386981051263005,0.5921423665718889,0.6441130572623662,0.7143958576750105,0.4778895281304843,0.2539834682846241,0.1112766479291885,0.1859215329726301,0.3355700734511236,0.6497931223215803,0.7817815636734659,0.7076758568621285,0.7408146381467244,0.7347372579295532,0.5553761509407741,0.5005776273526092,0.4904316512049424,0.663246298854797,0.5913066372924337,0.5261233335326965,0.3887734705847495,0.3578368824747037,0.0,0.178689205396478,0.2686437910992029,0.3448992764073292,0.582257008666809,0.8734728643958994,0.8423030974118446,0.7451977412539814,0.6269952134101211,0.4928025376985985,0.5549567334280745,0.4876371442925998,0.4102060425519896,0.7235024326363323,0.5676569533822348,0.3659959638381654,0.1692142053564047,0.232960149096407,0.2077477325823938,0.4947479539535867,0.5189693976721419,0.655572860528159,0.9042520057120504,0.8815034924226615,0.6985786176865793,0.6081532573280928,0.4541313908780783,0.4697806420615861,0.6078343402619696,0.6193506378102013,0.5541291122296794,0.6173436151795564,0.14930932416559,0.4239583469994583,0.0368613305436897,0.2033228837724928,0.4243566297260218,0.6161483718013107,0.8726522650304736,0.7310732147464892,0.7830490194912797,0.5748382012835456,0.5292920831782546,0.4383020762187194,0.4736294830622654,0.4797816786833732,0.5283424965944431,0.575228133582302,0.5315670183800071,0.2540553884372003,0.1283241492227269,0.2599216211775549,0.3152576631408417,0.5844137975904651,0.6184495246511432,0.6531909000980831,0.7634596409074876,0.6410878854782469,0.5652518456752725,0.41173270039389,0.5111300048718834,0.4629914901297923,0.5669698345439382,0.5886793795630837,0.5336213007781735,0.3892583635778904,0.3053068764702458,0.1198500639603071,0.3635494479723299,0.3677871502960662,0.4718870582295163,0.7755470096940891,0.7504132233658956,0.8404273490076154,0.855229060068778,0.4524167322115467,0.4792055304424506,0.2969994173219467,0.5571850697072586,0.4898377044322829,0.5045215217918622,0.3719911546277917,0.4014853769314292,0.3118908752602525,0.1974744536202803,0.2090710739026866,0.6121038885521033
0.4459385974870302,0.582507049368897,0.7527399320382692,0.8171379752089021,0.8134421354722742,0.8997303308857879,0.9462233730108564,0.8484258880829845,0.7669945449989359,0.668059397538886,0.5596244766314744,0.3725182867022913,0.3004809462976848,0.2064045863668515,0.1240260610253222,0.1326226611848412,0.0777490670978252,0.1223303547247517,0.1529996346758123,0.31164124810138,0.4457798139744981,0.513711350487817,0.6773696319547832,0.7430506146655326,0.7290739362345241,0.8784057573229715,0.8893386708919659,0.880065203312258,0.8312817841040437,0.709764301340699,0.6897073491510721,0.510403723801149,0.3856685768362536,0.3133674100011958,0.1940148425008783,0.2328083461760933,0.0929377548092063,0.1221394503539279,0.1205646441006385,0.2590166262257767,0.3354462227788182,0.4243613098723147,0.5232954241426302,0.6206058017877693,0.7882770902886322,0.7902509838499088,0.9399380885917764,0.8443057864144949,0.8582430806812482,0.7675238495790926,0.7135246425527504,0.6033565230272357,0.500607397357528,0.3040270512926499,0.2284804824243668,0.2134014425988324,0.1462025426798768,0.0,0.1304965151155053,0.1250080531671795,0.2234376072891494,0.3416669898764474,0.5298816058966871,0.5461285034625546,0.6434194938118174,0.8106566830576318,0.8581350048716203,0.9410065307405338,0.8765813703648873,0.9008790500859136,0.7830057667449755,0.7072848404116807,0.6376242471597356,0.4461516318433994,0.3784437377977582,0.2110381332442841,0.1671027004020031,0.0539555539931868,0.0800665871122251,0.0828447022213678,0.2324184199259419,0.3404247194743403,0.3650143686570186,0.4671610111134403,0.5644239305332726,0.7353214228548044,0.788148360801452,0.8490597556701969,0.9606933976267692,0.8725975619113495,0.8612625040164179,0.7625480448157205,0.6051074408252205,0.4696008623837233,0.4424300959864302,0.377620952158653,0.2261173182600707,0.1681560196645575,0.0692371826818264,0.1434479032790184,0.1766171788573446,0.1754708113109167,0.3182991651318595,0.3378685753758613,0.5569397625894471,0.6223921015086464,0.7000118664893923,0.8458213935648874,0.8098649513110205,0.9099774297872903,0.8308465046126493,0.7675523038067076,0.7393995002922138,0.6242085940831464,0.5710846920634269,0.3424319929974443,0.3384902539289393,0.1479474393266905,0.1672086651099404,0.1453729106532939,0.1209299092584583,0.1188991021100336,0.163649611023679,0.2453783102227484,0.5116705651950008,0.5462291535106216,0.6287641184769194,0.7260452148000516,0.8521986377207393,0.872070187938339,0.81815007988538,0.8997973575800091,0.8159954709344979,0.785532309404049,0.6477544374021319,0.3594409086983585,0.4212990051145517,0.3070213905777599,0.1453903441706279,0.1027272999199747,0.1159951289094808,0.0750553321357272,0.1564745622907222,0.2868642214080242,0.371353229789178,0.441260837799641,0.628425300187031,0.7114253491414615,0.8034204191606416,0.8387342113932618,0.8926537668319625,0.859796642883,0.7753148578142052,0.771209422850214,0.6813355265130452,0.5783894806869546,0.5011130056780762,0.3108298524386944,0.2208337259821939,0.1885643983421421,0.0815332939599334,0.1062869278725333,0.1087336874410042,0.1740712944283045,0.3013512351641735,0.3642672431046078,0.5294688707318073,0.5389837771433007,0.6678189036193178,0.7197789210590289,0.8244736391065757,0.9697482235233824,0.8837086621337364,0.8091480150987524,0.7916282619364521,0.6959213025361168,0.4944650239831119,0.5225442238267144,0.3207320220226438,0.2295982966925711,0.1631014857384179,0.1250130413408009,0.0782479204900802,0.2208449805543976,0.1918472319812671,0.3347193738584767,0.3893268642800981,0.5021068482117169,0.7209782274632145,0.7445880377245051,0.828419493998245,0.8917588901359967,1.0,0.9623742562468682,0.8723452419278315,0.8507153897600306,0.5934477538254341,0.5391731475243594,0.3966451571011922,0.2132140015447468
0.7208755436559404,0.8478425789582598,0.8091767454089921,0.943023129938515,0.663794667800532,0.6638939552840171,0.3381602292178753,0.474773811914687,0.5835812151914787,0.5239953501975941,0.6340151235514238,0.4632041875287391,0.4151988532673876,0.2043394991184099,0.2565573033241859,0.1079335210659924,0.2891549562067552,0.7156527513535362,0.5366977641657916,0.7786943158514736,0.776587072570343,0.6935208213810939,0.4789204990943352,0.3409615741892777,0.5684879166803551,0.6148228574777965,0.5362667952921153,0.3946322917211416,0.4985786233610125,0.3455130839273954,0.1471735764125595,0.0,0.253221086584758,0.5383569791466087,0.757707471021996,0.8065002606275165,0.7741450602257915,0.8129175708059246,0.4956052958837867,0.3560669340548503,0.4314105651378647,0.6199632849410189,0.6915467993623559,0.4545531953387234,0.4937071976448141,0.6439172642697978,0.2092734897794315,0.3371787232045474,0.2987789409226133,0.4579017641189761,0.5095972957574859,0.7001323677994686,0.7490650687531143,0.8830589138013958,0.5358994105550304,0.5326852155940727,0.608587823796142,0.5017960619102364,0.5958965545538601,0.4101967368511302,0.4780644645835597,0.6052085736442343,0.3692626611681139,0.1304367976790987,0.2378059886937284,0.2004211851218843,0.66272595819737,0.6896778169031534,0.7047950396984666,0.9207930905285712,0.9198312753677828,0.6305875858143106,0.4299586645268229,0.4455539657711181,0.4057559873154532,0.5056886825213156,0.4462611828629835,0.6324632075824598,0.3357090243122116,0.3574238502256991,0.1668408970837334,0.2137051060206789,0.2662444144887682,0.5273415495526264,0.7476825254028301,0.7921636626458176,0.660270869976797,0.7491077357269783,0.6110186812358777,0.3331116760791843,0.3493069641392308,0.4553286115124921,0.3393712212953351,0.6428785271659312,0.470028497868737,0.4137943376421217,0.1498660599849457,0.3689651694518542,0.0932795826074254,0.337626640585272,0.705651082342618,0.6595841321396398,0.8473600190508488,0.8487137284454346,0.5190977996529199,0.4610184641949773,0.4643980614320373,0.4959826190498785,0.4388916909990532,0.744494160411488,0.60771461774604,0.5427110451322456,0.3958134147031479,0.0631035280725942,0.1726234278937166,0.2771703603839796,0.4425929579387625,0.6911352145270698,0.6129757711392655,0.8446429348947455,0.7155716805939839,0.4037701122587994,0.5227731691978985,0.328909600874066,0.4392095293580931,0.5191054638871099,0.4049870599545702,0.3720372377553059,0.4667700199255153,0.217209166573412,0.1483882401151718,0.2140597555158634,0.1812722875990062,0.5131758815888148,0.7288021664459576,1.0,0.7218014815166764,0.7634060305517163,0.547844191199524,0.3487500694432073,0.3866556924415518,0.5831043648702713,0.6372955864515162,0.5225082334778189,0.5263742716143635,0.2601897933146099,0.2113958983900392,0.1387528789807398,0.3378728645607157,0.4681130979934703,0.5700708416849497,0.7372616971644488,0.8354265599362265,0.7532334932322685,0.6049262157299504,0.4689783322016126,0.5707672088058693,0.4208465718052223,0.5580580577409401,0.8037892056887486,0.470963688823274,0.4615911651382561,0.3233082741680774,0.1943252126614691,0.196652347978529,0.2283220814119918,0.542596336375191,0.534762608501919,0.9937164472252524,0.9831925460593504,0.6866123183968702,0.673014627472462,0.4399871093132894,0.4422544596893791,0.4240795499657584,0.6315306387976198,0.5219492643350186,0.589528696317079,0.3827820125793601,0.2478916444189147,0.0398311909470724,0.2321481676710281,0.2769021729516263,0.5989521466622237,0.949356191882146,0.7084791861469859,0.7761344610181319,0.6007968804704945,0.4261556836547441,0.3723401984406909,0.591426523818861,0.678911128784204,0.4736955943265002,0.600207217161493,0.3836558553427299,0.2648362737670053,0.0175227851544423,0.3833591886392912,0.3817180912207449,0.4053229580007972
